# time[s], T9[GK], density[g/cm^3], Ye 
# 
5.304517024878862230e+00 5.790321299774816133e+00 4.096649368274320711e-03 8.343346788662415747e-01
5.573526101716886672e+00 5.648856822802224897e+00 3.803667158014608501e-03 8.343346788662415747e-01
5.856177491904428045e+00 5.510848492252097053e+00 3.531638309346792678e-03 8.343346788662415747e-01
6.153163040920136773e+00 5.376211870332350706e+00 3.279064289777683557e-03 8.343346788662415747e-01
6.465209679946537946e+00 5.244864582167188871e+00 3.044553738144253376e-03 8.343346788662415747e-01
6.793081205178639337e+00 5.116726265397581130e+00 2.826814799985695719e-03 8.343346788662415747e-01
7.137580147366985095e+00 4.991718521013079446e+00 2.624648011070698436e-03 8.343346788662415747e-01
7.499549736171244874e+00 4.869764865384855312e+00 2.436939689877183103e-03 8.343346788662415747e-01
7.879875964132470045e+00 4.750790683470639486e+00 2.262655802625540818e-03 8.343346788662415747e-01
8.279489755315998067e+00 4.634723183162916094e+00 2.100836267069477233e-03 8.343346788662415747e-01
8.699369243933212204e+00 4.521491350752444127e+00 1.950589663665618090e-03 8.343346788662415747e-01
9.140542168519502297e+00 4.411025907479864117e+00 1.811088324987166929e-03 8.343346788662415747e-01
9.604088387528690873e+00 4.303259267148790812e+00 1.681563776330512964e-03 8.343346788662415747e-01
1.009114252250130583e+01 4.198125494774478383e+00 1.561302502398369306e-03 8.343346788662415747e-01
1.060289673527640275e+01 4.095560266242745051e+00 1.449642016739236634e-03 8.343346788662415747e-01
1.114060364604473108e+01 3.995500828954474226e+00 1.345967212290810362e-03 8.343346788662415747e-01
1.170557939938568026e+01 3.897885963431626966e+00 1.249706972923491071e-03 8.343346788662415747e-01
1.229920688579286114e+01 3.802655945861253883e+00 1.160331027317891561e-03 8.343346788662415747e-01
1.292293912657355115e+01 3.709752511554612830e+00 1.077347027845239336e-03 8.343346788662415747e-01
1.357830283040725305e+01 3.619118819299013801e+00 1.000297838359004866e-03 8.343346788662415747e-01
1.426690213026875220e+01 3.530699416580600491e+00 9.287590159569583323e-04 8.343346788662415747e-01
1.499042250986253677e+01 3.444440205656772669e+00 8.623364728413560271e-04 8.343346788662415747e-01
1.575063492917928976e+01 3.360288410457506814e+00 8.006643053970990791e-04 8.343346788662415747e-01
1.654940015927259367e+01 3.278192544295310817e+00 7.434027785288350358e-04 8.343346788662415747e-01
1.738867333686611971e+01 3.198102378364065412e+00 6.902364541532783485e-04 8.343346788662415747e-01
1.827050874993939544e+01 3.119968911007485080e+00 6.408724535371263789e-04 8.343346788662415747e-01
1.919706486600624729e+01 3.043744337738367722e+00 5.950388439082493703e-04 8.343346788662415747e-01
2.017060961539310426e+01 2.969382021990329523e+00 5.524831404524612822e-04 8.343346788662415747e-01
2.119352594244947596e+01 2.896836466584101544e+00 5.129709154437649176e-04 8.343346788662415747e-01
2.226831763827804522e+01 2.826063285890935806e+00 4.762845068461526088e-04 8.343346788662415747e-01
2.339761546926121838e+01 2.757019178676100246e+00 4.422218192730098052e-04 8.343346788662415747e-01
2.458418361638500826e+01 2.689661901605829630e+00 4.105952106989261153e-04 8.343346788662415747e-01
2.583092644112147340e+01 2.623950243401548921e+00 3.812304587911258388e-04 8.343346788662415747e-01
2.714089559443110389e+01 2.559843999625518673e+00 3.539658011663023842e-04 8.343346788662415747e-01
2.851729748628510919e+01 2.497303948082518321e+00 3.286510442859159799e-04 8.343346788662415747e-01
2.996350113399157777e+01 2.436291824822481189e+00 3.051467360810840063e-04 8.343346788662415747e-01
3.148304640853506697e+01 2.376770300729420526e+00 2.833233977492919829e-04 8.343346788662415747e-01
3.307965269911476724e+01 2.318702958682312687e+00 2.630608104910990043e-04 8.343346788662415747e-01
3.475722801708908349e+01 2.262054271273973516e+00 2.442473532576674836e-04 8.343346788662415747e-01
3.651987856161048285e+01 2.206789579074279750e+00 2.267793878609462735e-04 8.343346788662415747e-01
3.837191877036446641e+01 2.152875069424452281e+00 2.105606880592511120e-04 8.343346788662415747e-01
4.031788188001345929e+01 2.100277755749423658e+00 1.955019094732305556e-04 8.343346788662415747e-01
4.236253102219521338e+01 2.048965457375615085e+00 1.815200974121240589e-04 8.343346788662415747e-01
4.451087088223422228e+01 1.998906779841811421e+00 1.685382298990730095e-04 8.343346788662415747e-01
4.676815994910450058e+01 1.950071095691039869e+00 1.564847933781216916e-04 8.343346788662415747e-01
4.913992338662669113e+01 1.902428525731747699e+00 1.452933887656080098e-04 8.343346788662415747e-01
5.163196655740519958e+01 1.855949920756779337e+00 1.349023656757791030e-04 8.343346788662415747e-01
5.425038923260748192e+01 1.810606843708983948e+00 1.252544828056854768e-04 8.343346788662415747e-01
5.700160052236680031e+01 1.766371552282539836e+00 1.162965926085057777e-04 8.343346788662415747e-01
5.989233456335367833e+01 1.723216981949347693e+00 1.079793485182540147e-04 8.343346788662415747e-01
6.292966700191433915e+01 1.681116729400109699e+00 1.002569331130497699e-04 8.343346788662415747e-01
6.612103231312204343e+01 1.640045036389964350e+00 9.308680571947823361e-05 8.343346788662415747e-01
6.947424199813316648e+01 1.599976773978788236e+00 8.642946806766024196e-05 8.343346788662415747e-01
7.299750370438927405e+01 1.560887427156530505e+00 8.024824670609147703e-05 8.343346788662415747e-01
7.669944131546641586e+01 1.522753079844166413e+00 7.450909097763299381e-05 8.343346788662415747e-01
8.058911605974476799e+01 1.485550400261095083e+00 6.918038544375804523e-05 8.343346788662415747e-01
8.467604868956688335e+01 1.449256626650029078e+00 6.423277572375186658e-05 8.343346788662415747e-01
8.897024278517207563e+01 1.413849553350645660e+00 5.963900678946092333e-05 8.343346788662415747e-01
9.348220924044809976e+01 1.379307517213469891e+00 5.537377282480003158e-05 8.343346788662415747e-01
9.822299199043395390e+01 1.345609384345686887e+00 5.141357782293610226e-05 8.343346788662415747e-01
1.032041950435467470e+02 1.312734537180767713e+00 4.773660615321548289e-05 8.343346788662415747e-01
1.084380108846995370e+02 1.280662861864001911e+00 4.432260238482420539e-05 8.343346788662415747e-01
1.139372503188326533e+02 1.249374735946212622e+00 4.115275970516176374e-05 8.343346788662415747e-01
1.197153738279060207e+02 1.218851016378133423e+00 3.820961631825673077e-05 8.343346788662415747e-01
1.257865245181047698e+02 1.189073027798095650e+00 3.547695925251079490e-05 8.343346788662415747e-01
1.321655627379041107e+02 1.160022551105858835e+00 3.293973504787434434e-05 8.343346788662415747e-01
1.388681024517271965e+02 1.131681812315598279e+00 3.058396683045407733e-05 8.343346788662415747e-01
1.459105494582274503e+02 1.104033471681228340e+00 2.839667731773924900e-05 8.343346788662415747e-01
1.533101415467424999e+02 1.077060613087406526e+00 2.636581733030327678e-05 8.343346788662415747e-01
1.610849906902112423e+02 1.050746733699727598e+00 2.448019941617122458e-05 8.343346788662415747e-01
1.692541273778299740e+02 1.025075733867771177e+00 2.272943622220773474e-05 8.343346788662415747e-01
1.778375471959567165e+02 1.000031907274842702e+00 2.110388327303140742e-05 8.343346788662415747e-01
1.868562597712858349e+02 9.755999313283544305e-01 1.959458584223854023e-05 8.343346788662415747e-01
1.963323401960870171e+02 9.517648577849870950e-01 1.819322962326564322e-05 8.343346788662415747e-01
2.062889830613825666e+02 9.285121036048894494e-01 1.689209492814961041e-05 8.343346788662415747e-01
2.167505592303204480e+02 9.058274420293226381e-01 1.568401416187915594e-05 8.343346788662415747e-01
2.277426754907079953e+02 8.836969938762848642e-01 1.456233233807503578e-05 8.343346788662415747e-01
2.392922372327170137e+02 8.621072190487948372e-01 1.352087041849101616e-05 8.343346788662415747e-01
2.514275143051757482e+02 8.410449082506397112e-01 1.255389127438295937e-05 8.343346788662415747e-01
2.641782102116439432e+02 8.204971749045189000e-01 1.165606808223650529e-05 8.343346788662415747e-01
2.775755348156455966e+02 8.004514472676312886e-01 1.082245497975372082e-05 8.343346788662415747e-01
2.916522807330147202e+02 7.808954607398934655e-01 1.004845982045109328e-05 8.343346788662415747e-01
3.064429035983424683e+02 7.618172503600761925e-01 9.329818876781109524e-06 8.343346788662415747e-01
3.219836064019941659e+02 7.432051434852684491e-01 8.662573352423836415e-06 8.343346788662415747e-01
3.383124281041274344e+02 7.250477526491898583e-01 8.043047574361190838e-06 8.343346788662415747e-01
3.554693367426101531e+02 7.073339685949855404e-01 7.467828744600075381e-06 8.343346788662415747e-01
3.734963272627393849e+02 6.900529534782372520e-01 6.933748140002073460e-06 8.343346788662415747e-01
3.924375243082203610e+02 6.731941342360332481e-01 6.437863656654735397e-06 8.343346788662415747e-01
4.123392902250082557e+02 6.567471961180360029e-01 5.977443602626061664e-06 8.343346788662415747e-01
4.332503385423638065e+02 6.407020763756017256e-01 5.549951649821251444e-06 8.343346788662415747e-01
4.552218532089046903e+02 6.250489581050747701e-01 5.153032862045157476e-06 8.343346788662415747e-01
4.783076138754976228e+02 6.097782642415001675e-01 4.784500722303142471e-06 8.343346788662415747e-01
5.025641275316463066e+02 5.948806516990780002e-01 4.442325087877278655e-06 8.343346788662415747e-01
5.280507668175828258e+02 5.803470056547733735e-01 4.124621006825615336e-06 8.343346788662415747e-01
5.548299153506109178e+02 5.661684339715831182e-01 3.829638334297692348e-06 8.343346788662415747e-01
5.829671204214145064e+02 5.523362617580489520e-01 3.555752091465420750e-06 8.343346788662415747e-01
6.125312534340839647e+02 5.388420260606899825e-01 3.301453513959389218e-06 8.343346788662415747e-01
6.435946784825692930e+02 5.256774706861047086e-01 3.065341740498786690e-06 8.343346788662415747e-01
6.762334294761938054e+02 5.128345411495732753e-01 2.846116095929891186e-06 8.343346788662415747e-01
7.105273962477594978e+02 5.003053797470750075e-01 2.642568926162582521e-06 8.343346788662415747e-01
7.465605200998037390e+02 4.880823207476984726e-01 2.453578945534367109e-06 8.343346788662415747e-01
7.844209992676217098e+02 4.761578857035108081e-01 2.278105059954513890e-06 8.343346788662415747e-01
8.242015048019893584e+02 4.645247788740088368e-01 2.115180631801548791e-06 8.343346788662415747e-01
8.659994073999849888e+02 4.531758827623584285e-01 1.963908154981105652e-06 8.343346788662415747e-01
9.099170157391275779e+02 4.421042537606894585e-01 1.823454310810446686e-06 8.343346788662415747e-01
9.560618268982143491e+02 4.313031179017783878e-01 1.693045377493828780e-06 8.343346788662415747e-01
1.004546789477787684e+03 4.207658667145264819e-01 1.571962967900870750e-06 8.343346788662415747e-01
1.055490580064301184e+03 4.104860531806894253e-01 1.459540072168394440e-06 8.343346788662415747e-01
1.109017893714653610e+03 4.004573877903928047e-01 1.355157383325623237e-06 8.343346788662415747e-01
1.165259749172143756e+03 3.906737346940125644e-01 1.258239885701519916e-06 8.343346788662415747e-01
1.224353809560886020e+03 3.811291079480725874e-01 1.168253687320807088e-06 8.343346788662415747e-01
1.286444719343687666e+03 3.718176678528570811e-01 1.084703078839152696e-06 8.343346788662415747e-01
1.351684458368128617e+03 3.627337173795008862e-01 1.007127802816034202e-06 8.343346788662415747e-01
1.420232713867452958e+03 3.538716986843708501e-01 9.351005182824444352e-07 8.343346788662415747e-01
1.492257271326833461e+03 3.452261897086021936e-01 8.682244466364095851e-07 8.343346788662415747e-01
1.567934425171697285e+03 3.367919008607162534e-01 8.061311858982566725e-07 8.343346788662415747e-01
1.647449410283397128e+03 3.285636717802817297e-01 7.484786812848959013e-07 8.343346788662415747e-01
1.730996855398402886e+03 3.205364681806474603e-01 6.949493409236296608e-07 8.343346788662415747e-01
1.818781259500845408e+03 3.127053787688076070e-01 6.452482863254166253e-07 8.343346788662415747e-01
1.911017492374429366e+03 3.050656122405209780e-01 5.991017279799696092e-07 8.343346788662415747e-01
2.007931320538963519e+03 2.976124943488408503e-01 5.562554571242527094e-07 8.343346788662415747e-01
2.109759959858804905e+03 2.903414650442658895e-01 5.164734453759682475e-07 8.343346788662415747e-01
2.216752656175846369e+03 2.832480756847600700e-01 4.795365445177823747e-07 8.343346788662415747e-01
2.329171295388287490e+03 2.763279863139342929e-01 4.452412792697563985e-07 8.343346788662415747e-01
2.447291044468427572e+03 2.695769630057268662e-01 4.133987263997107915e-07 8.343346788662415747e-01
2.571401024988559584e+03 2.629908752739548716e-01 3.838334739968285686e-07 8.343346788662415747e-01
2.701805020803486968e+03 2.565656935451550713e-01 3.563826551754403376e-07 8.343346788662415747e-01
2.838822221621933295e+03 2.502974866931644282e-01 3.308950508859109344e-07 8.343346788662415747e-01
2.982788004286796877e+03 2.441824196339358877e-01 3.072302568902775339e-07 8.343346788662415747e-01
3.134054753676679411e+03 2.382167509791136839e-01 2.852579103137169064e-07 8.343346788662415747e-01
3.292992725237935247e+03 2.323968307469357064e-01 2.648569715111399421e-07 8.343346788662415747e-01
3.459990951258485893e+03 2.267190981290615748e-01 2.459150572929078416e-07 8.343346788662415747e-01
3.635458193101720099e+03 2.211800793119584885e-01 2.283278218365889953e-07 8.343346788662415747e-01
3.819823941731182003e+03 2.157763853515146935e-01 2.119983818743769931e-07 8.343346788662415747e-01
4.013539468975128784e+03 2.105047100995773579e-01 1.968367829896762413e-07 8.343346788662415747e-01
4.217078932104030173e+03 2.053618281811488422e-01 1.827595040828365440e-07 8.343346788662415747e-01
4.430940534424800717e+03 2.003445930210012715e-01 1.696889972762669102e-07 8.343346788662415747e-01
4.655647744732417777e+03 1.954499349185045143e-01 1.575532607243986683e-07 8.343346788662415747e-01
4.891750578603911890e+03 1.906748591694872597e-01 1.462854419752185469e-07 8.343346788662415747e-01
5.139826944670843659e+03 1.860164442339838908e-01 1.358234696984032474e-07 8.343346788662415747e-01
5.400484059165573854e+03 1.814718399487459111e-01 1.261097117513462221e-07 8.343346788662415747e-01
5.674359932203758945e+03 1.770382657834225215e-01 1.170906576994518815e-07 8.343346788662415747e-01
5.962124929440929918e+03 1.727130091393464517e-01 1.087166240417948747e-07 8.343346788662415747e-01
6.264483412925771518e+03 1.684934236898809057e-01 1.009414805183068037e-07 8.343346788662415747e-01
6.582175465166237700e+03 1.643769277613152668e-01 9.372239599079726918e-08 8.343346788662415747e-01
6.915978700628701517e+03 1.603610027533160509e-01 8.701960249793189795e-08 8.343346788662415747e-01
7.266710169103916996e+03 1.564431915979696275e-01 8.079617618441633838e-08 8.343346788662415747e-01
7.635228355598897906e+03 1.526210972564708279e-01 7.501783389757945989e-08 8.343346788662415747e-01
8.022435281649643912e+03 1.488923812525403401e-01 6.965274433086666605e-08 8.343346788662415747e-01
8.429278713198178593e+03 1.452547622416724693e-01 6.467135267388235661e-08 8.343346788662415747e-01
8.856754480438206883e+03 1.417060146153368561e-01 6.004621780302544329e-08 8.343346788662415747e-01
9.305908915307440111e+03 1.382439671392825808e-01 5.575186111584892837e-08 8.343346788662415747e-01
9.777841412593146742e+03 1.348665016251088811e-01 5.176462617640993118e-08 8.343346788662415747e-01
1.027370712091940550e+04 1.315715516342921554e-01 4.806254839843774694e-08 8.343346788662415747e-01
1.079471977020313898e+04 1.283571012138739476e-01 4.462523404843747921e-08 8.343346788662415747e-01
1.134215464249931028e+04 1.252211836630388597e-01 4.143374790219320953e-08 8.343346788662415747e-01
1.191735169350746764e+04 1.221618803298249317e-01 3.847050893579810528e-08 8.343346788662415747e-01
1.252171883237959810e+04 1.191773194372335032e-01 3.571919347660513949e-08 8.343346788662415747e-01
1.315673536785778560e+04 1.162656749380173993e-01 3.316464528058071150e-08 8.343346788662415747e-01
1.382395562917660391e+04 1.134251653974479718e-01 3.079279204070302649e-08 8.343346788662415747e-01
1.452501277059268250e+04 1.106540529033790965e-01 2.859056786647429429e-08 8.343346788662415747e-01
1.526162276885485699e+04 1.079506420029368585e-01 2.654584130750384401e-08 8.343346788662415747e-01
1.603558862339816005e+04 1.053132786651899688e-01 2.464734852466841766e-08 8.343346788662415747e-01
1.684880476954353799e+04 1.027403492691616599e-01 2.288463124070410311e-08 8.343346788662415747e-01
1.770326171550509025e+04 1.002302796165659426e-01 2.124797912841841963e-08 8.343346788662415747e-01
1.860105091455451475e+04 9.778153396866455516e-02 1.972837631915512290e-08 8.343346788662415747e-01
1.954436988426891548e+04 9.539261410665410279e-02 1.831745173684067356e-08 8.343346788662415747e-01
2.053552758539217757e+04 9.306205841500862774e-02 1.700743298401635634e-08 8.343346788662415747e-01
2.157695007347521823e+04 9.078844098721855493e-02 1.579110352582792102e-08 8.343346788662415747e-01
2.267118643712947232e+04 8.857037075337630128e-02 1.466176293610942620e-08 8.343346788662415747e-01
2.382091503742829809e+04 8.640649062907597433e-02 1.361318998656871458e-08 8.343346788662415747e-01
2.502895006372774515e+04 8.429547668510808944e-02 1.263960837574361371e-08 8.343346788662415747e-01
2.629824842195523161e+04 8.223603733743699296e-02 1.173565490893702065e-08 8.343346788662415747e-01
2.763191697222420771e+04 8.022691255697074475e-02 1.089634995384538927e-08 8.343346788662415747e-01
2.903322013349221743e+04 7.826687309863557263e-02 1.011707000912666388e-08 8.343346788662415747e-01
3.050558787387558186e+04 7.635471974928527417e-02 9.393522234796435580e-09 8.343346788662415747e-01
3.205262410617799469e+04 7.448928259398586438e-02 8.721720804147333659e-09 8.343346788662415747e-01
3.367811550918386638e+04 7.266942030022485732e-02 8.097964946920155477e-09 8.343346788662415747e-01
3.538604079630779597e+04 7.089401941960833675e-02 7.518818562773108208e-09 8.343346788662415747e-01
3.718058045428635523e+04 6.916199370661901824e-02 6.981091292745362915e-09 8.343346788662415747e-01
3.906612697575077618e+04 6.747228345401720673e-02 6.481820944442432942e-09 8.343346788662415747e-01
4.104729561072642537e+04 6.582385484447861312e-02 6.018257174128717620e-09 8.343346788662415747e-01
4.312893566337397351e+04 6.421569931807358245e-02 5.587846335836667757e-09 8.343346788662415747e-01
4.531614236162665475e+04 6.264683295519775375e-02 5.188217414029615669e-09 8.343346788662415747e-01
4.761426932877324725e+04 6.111629587457988178e-02 4.817168962326090759e-09 8.343346788662415747e-01
5.002894168751498364e+04 5.962315164599700512e-02 4.472656976334170371e-09 8.343346788662415747e-01
5.256606982857307594e+04 5.816648671733638809e-02 4.152783633790354197e-09 8.343346788662415747e-01
5.523186387754413590e+04 5.674540985565666718e-02 3.855786839976196188e-09 8.343346788662415747e-01
5.803284889541773009e+04 5.535905160190350560e-02 3.580030520820580469e-09 8.343346788662415747e-01
6.097588084996108228e+04 5.400656373894728579e-02 3.323995610215302070e-09 8.343346788662415747e-01
6.406816339706205326e+04 5.268711877261804399e-02 3.086271681895639441e-09 8.343346788662415747e-01
6.731726551311086223e+04 5.139990942541811797e-02 2.865549179787871147e-09 8.343346788662415747e-01
7.073114002157408686e+04 5.014414814260494124e-02 2.660612204023247531e-09 8.343346788662415747e-01
7.431814305911048723e+04 4.891906661034085141e-02 2.470331812878365283e-09 8.343346788662415747e-01
7.808705452887875435e+04 4.772391528561416990e-02 2.293659803744021756e-09 8.343346788662415747e-01
8.204709959109532065e+04 4.655796293764575405e-02 2.129622938863909408e-09 8.343346788662415747e-01
8.620797124344737676e+04 4.542049620049952441e-02 1.977317584034153567e-09 8.343346788662415747e-01
9.057985404663388908e+04 4.431081913662245075e-02 1.835904730729665135e-09 8.343346788662415747e-01
9.517344905310212926e+04 4.322825281104851480e-02 1.704605374235788040e-09 8.343346788662415747e-01
