# time[s], T9[GK], density[g/cm^3], Ye 
# 
5.304517024878862230e+00 5.790321299774816133e+00 2.024446691986007182e-03 8.343346788662415747e-01
5.573526101716886672e+00 5.648856822802224897e+00 1.879663281678945960e-03 8.343346788662415747e-01
5.856177491904428045e+00 5.510848492252097053e+00 1.745234422066217501e-03 8.343346788662415747e-01
6.153163040920136773e+00 5.376211870332350706e+00 1.620419581343424033e-03 8.343346788662415747e-01
6.465209679946537946e+00 5.244864582167188871e+00 1.504531188705589490e-03 8.343346788662415747e-01
6.793081205178639337e+00 5.116726265397581130e+00 1.396930846707728673e-03 8.343346788662415747e-01
7.137580147366985095e+00 4.991718521013079446e+00 1.297025814508010778e-03 8.343346788662415747e-01
7.499549736171244874e+00 4.869764865384855312e+00 1.204265742620644602e-03 8.343346788662415747e-01
7.879875964132470045e+00 4.750790683470639486e+00 1.118139641191154840e-03 8.343346788662415747e-01
8.279489755315998067e+00 4.634723183162916094e+00 1.038173065093093116e-03 8.343346788662415747e-01
8.699369243933212204e+00 4.521491350752444127e+00 9.639255003396555825e-04 8.343346788662415747e-01
9.140542168519502297e+00 4.411025907479864117e+00 8.949879374126692728e-04 8.343346788662415747e-01
9.604088387528690873e+00 4.303259267148790812e+00 8.309806181410665880e-04 8.343346788662415747e-01
1.009114252250130583e+01 4.198125494774478383e+00 7.715509437170365616e-04 8.343346788662415747e-01
1.060289673527640275e+01 4.095560266242745051e+00 7.163715323256719756e-04 8.343346788662415747e-01
1.114060364604473108e+01 3.995500828954474226e+00 6.651384156881296568e-04 8.343346788662415747e-01
1.170557939938568026e+01 3.897885963431626966e+00 6.175693645835583258e-04 8.343346788662415747e-01
1.229920688579286114e+01 3.802655945861253883e+00 5.734023341255439473e-04 8.343346788662415747e-01
1.292293912657355115e+01 3.709752511554612830e+00 5.323940202285343953e-04 8.343346788662415747e-01
1.357830283040725305e+01 3.619118819299013801e+00 4.943185193122047764e-04 8.343346788662415747e-01
1.426690213026875220e+01 3.530699416580600491e+00 4.589660838604480418e-04 8.343346788662415747e-01
1.499042250986253677e+01 3.444440205656772669e+00 4.261419669796999779e-04 8.343346788662415747e-01
1.575063492917928976e+01 3.360288410457506814e+00 3.956653495915914750e-04 8.343346788662415747e-01
1.654940015927259367e+01 3.278192544295310817e+00 3.673683443501210327e-04 8.343346788662415747e-01
1.738867333686611971e+01 3.198102378364065412e+00 3.410950707962044290e-04 8.343346788662415747e-01
1.827050874993939544e+01 3.119968911007485080e+00 3.167007966548808441e-04 8.343346788662415747e-01
1.919706486600624729e+01 3.043744337738367722e+00 2.940511405448085190e-04 8.343346788662415747e-01
2.017060961539310426e+01 2.969382021990329523e+00 2.730213317080082565e-04 8.343346788662415747e-01
2.119352594244947596e+01 2.896836466584101544e+00 2.534955226818973954e-04 8.343346788662415747e-01
2.226831763827804522e+01 2.826063285890935806e+00 2.353661511273167251e-04 8.343346788662415747e-01
2.339761546926121838e+01 2.757019178676100246e+00 2.185333472970368081e-04 8.343346788662415747e-01
2.458418361638500826e+01 2.689661901605829630e+00 2.029043838806459743e-04 8.343346788662415747e-01
2.583092644112147340e+01 2.623950243401548921e+00 1.883931651951723440e-04 8.343346788662415747e-01
2.714089559443110389e+01 2.559843999625518673e+00 1.749197529075213460e-04 8.343346788662415747e-01
2.851729748628510919e+01 2.497303948082518321e+00 1.624099256760743360e-04 8.343346788662415747e-01
2.996350113399157777e+01 2.436291824822481189e+00 1.507947702856251811e-04 8.343346788662415747e-01
3.148304640853506697e+01 2.376770300729420526e+00 1.400103020233344658e-04 8.343346788662415747e-01
3.307965269911476724e+01 2.318702958682312687e+00 1.299971122044541925e-04 8.343346788662415747e-01
3.475722801708908349e+01 2.262054271273973516e+00 1.207000409061398914e-04 8.343346788662415747e-01
3.651987856161048285e+01 2.206789579074279750e+00 1.120678731065279229e-04 8.343346788662415747e-01
3.837191877036446641e+01 2.152875069424452281e+00 1.040530565551941907e-04 8.343346788662415747e-01
4.031788188001345929e+01 2.100277755749423658e+00 9.661143982081868160e-05 8.343346788662415747e-01
4.236253102219521338e+01 2.048965457375615085e+00 8.970202907302980721e-05 8.343346788662415747e-01
4.451087088223422228e+01 1.998906779841811421e+00 8.328676225861179612e-05 8.343346788662415747e-01
4.676815994910450058e+01 1.950071095691039869e+00 7.733029942806640038e-05 8.343346788662415747e-01
4.913992338662669113e+01 1.902428525731747699e+00 7.179982805750239000e-05 8.343346788662415747e-01
5.163196655740519958e+01 1.855949920756779337e+00 6.666488229341918919e-05 8.343346788662415747e-01
5.425038923260748192e+01 1.810606843708983948e+00 6.189717512465627946e-05 8.343346788662415747e-01
5.700160052236680031e+01 1.766371552282539836e+00 5.747044255698881455e-05 8.343346788662415747e-01
5.989233456335367833e+01 1.723216981949347693e+00 5.336029893196992063e-05 8.343346788662415747e-01
6.292966700191433915e+01 1.681116729400109699e+00 4.954410259301083365e-05 8.343346788662415747e-01
6.612103231312204343e+01 1.640045036389964350e+00 4.600083115869018599e-05 8.343346788662415747e-01
6.947424199813316648e+01 1.599976773978788236e+00 4.271096571620686111e-05 8.343346788662415747e-01
7.299750370438927405e+01 1.560887427156530505e+00 3.965638329703039428e-05 8.343346788662415747e-01
7.669944131546641586e+01 1.522753079844166413e+00 3.682025704242623999e-05 8.343346788662415747e-01
8.058911605974476799e+01 1.485550400261095083e+00 3.418696350889522827e-05 8.343346788662415747e-01
8.467604868956688335e+01 1.449256626650029078e+00 3.174199660289820865e-05 8.343346788662415747e-01
8.897024278517207563e+01 1.413849553350645660e+00 2.947188767075621175e-05 8.343346788662415747e-01
9.348220924044809976e+01 1.379307517213469891e+00 2.736413130352251602e-05 8.343346788662415747e-01
9.822299199043395390e+01 1.345609384345686887e+00 2.540711644810662935e-05 8.343346788662415747e-01
1.032041950435467470e+02 1.312734537180767713e+00 2.359006244515986870e-05 8.343346788662415747e-01
1.084380108846995370e+02 1.280662861864001911e+00 2.190295964137295941e-05 8.343346788662415747e-01
1.139372503188326533e+02 1.249374735946212622e+00 2.033651424903471262e-05 8.343346788662415747e-01
1.197153738279060207e+02 1.218851016378133423e+00 1.888209714909866468e-05 8.343346788662415747e-01
1.257865245181047698e+02 1.189073027798095650e+00 1.753169635572739612e-05 8.343346788662415747e-01
1.321655627379041107e+02 1.160022551105858835e+00 1.627787288045477572e-05 8.343346788662415747e-01
1.388681024517271965e+02 1.131681812315598279e+00 1.511371975283399912e-05 8.343346788662415747e-01
1.459105494582274503e+02 1.104033471681228340e+00 1.403282397182736014e-05 8.343346788662415747e-01
1.533101415467424999e+02 1.077060613087406526e+00 1.302923117833833030e-05 8.343346788662415747e-01
1.610849906902112423e+02 1.050746733699727598e+00 1.209741285427653745e-05 8.343346788662415747e-01
1.692541273778299740e+02 1.025075733867771177e+00 1.123223586746419818e-05 8.343346788662415747e-01
1.778375471959567165e+02 1.000031907274842702e+00 1.042893419461579672e-05 8.343346788662415747e-01
1.868562597712858349e+02 9.755999313283544305e-01 9.683082666619711432e-06 8.343346788662415747e-01
1.963323401960870171e+02 9.517648577849870950e-01 8.990572591492448166e-06 8.343346788662415747e-01
2.062889830613825666e+02 9.285121036048894494e-01 8.347589120718757269e-06 8.343346788662415747e-01
2.167505592303204480e+02 9.058274420293226381e-01 7.750590234295053659e-06 8.343346788662415747e-01
2.277426754907079953e+02 8.836969938762848642e-01 7.196287228710361505e-06 8.343346788662415747e-01
2.392922372327170137e+02 8.621072190487948372e-01 6.681626600378528480e-06 8.343346788662415747e-01
2.514275143051757482e+02 8.410449082506397112e-01 6.203773224722501389e-06 8.343346788662415747e-01
2.641782102116439432e+02 8.204971749045189000e-01 5.760094738248846732e-06 8.343346788662415747e-01
2.775755348156455966e+02 8.004514472676312886e-01 5.348147037577467188e-06 8.343346788662415747e-01
2.916522807330147202e+02 7.808954607398934655e-01 4.965660815544890791e-06 8.343346788662415747e-01
3.064429035983424683e+02 7.618172503600761925e-01 4.610529060212056509e-06 8.343346788662415747e-01
3.219836064019941659e+02 7.432051434852684491e-01 4.280795447912070524e-06 8.343346788662415747e-01
3.383124281041274344e+02 7.250477526491898583e-01 3.974643566398398439e-06 8.343346788662415747e-01
3.554693367426101531e+02 7.073339685949855404e-01 3.690386908726841732e-06 8.343346788662415747e-01
3.734963272627393849e+02 6.900529534782372520e-01 3.426459582750255897e-06 8.343346788662415747e-01
3.924375243082203610e+02 6.731941342360332481e-01 3.181407685047184789e-06 8.343346788662415747e-01
4.123392902250082557e+02 6.567471961180360029e-01 2.953881291765690893e-06 8.343346788662415747e-01
4.332503385423638065e+02 6.407020763756017256e-01 2.742627022262295808e-06 8.343346788662415747e-01
4.552218532089046903e+02 6.250489581050747701e-01 2.546481134570937112e-06 8.343346788662415747e-01
4.783076138754976228e+02 6.097782642415001675e-01 2.364363114666899530e-06 8.343346788662415747e-01
5.025641275316463066e+02 5.948806516990780002e-01 2.195269724210723845e-06 8.343346788662415747e-01
5.280507668175828258e+02 5.803470056547733735e-01 2.038269473982712532e-06 8.343346788662415747e-01
5.548299153506109178e+02 5.661684339715831182e-01 1.892497492563687185e-06 8.343346788662415747e-01
5.829671204214145064e+02 5.523362617580489520e-01 1.757150761994985134e-06 8.343346788662415747e-01
6.125312534340839647e+02 5.388420260606899825e-01 1.631483694172265009e-06 8.343346788662415747e-01
6.435946784825692930e+02 5.256774706861047086e-01 1.514804023604652319e-06 8.343346788662415747e-01
6.762334294761938054e+02 5.128345411495732753e-01 1.406468993913558353e-06 8.343346788662415747e-01
7.105273962477594978e+02 5.003053797470750075e-01 1.305881817063682125e-06 8.343346788662415747e-01
7.465605200998037390e+02 4.880823207476984726e-01 1.212488385821003563e-06 8.343346788662415747e-01
7.844209992676217098e+02 4.761578857035108081e-01 1.125774221327666292e-06 8.343346788662415747e-01
8.242015048019893584e+02 4.645247788740088368e-01 1.045261638978711144e-06 8.343346788662415747e-01
8.659994073999849888e+02 4.531758827623584285e-01 9.705071169882975488e-07 8.343346788662415747e-01
9.099170157391275779e+02 4.421042537606894585e-01 9.010988531495535241e-07 8.343346788662415747e-01
9.560618268982143491e+02 4.313031179017783878e-01 8.366544963288815800e-07 8.343346788662415747e-01
1.004546789477787684e+03 4.207658667145264819e-01 7.768190401982007884e-07 8.343346788662415747e-01
1.055490580064301184e+03 4.104860531806894253e-01 7.212628676022113735e-07 8.343346788662415747e-01
1.109017893714653610e+03 4.004573877903928047e-01 6.696799347876883076e-07 8.343346788662415747e-01
1.165259749172143756e+03 3.906737346940125644e-01 6.217860854921779675e-07 8.343346788662415747e-01
1.224353809560886020e+03 3.811291079480725874e-01 5.773174856049073812e-07 8.343346788662415747e-01
1.286444719343687666e+03 3.718176678528570811e-01 5.360291697768545398e-07 8.343346788662415747e-01
1.351684458368128617e+03 3.627337173795008862e-01 4.976936919736715730e-07 8.343346788662415747e-01
1.420232713867452958e+03 3.538716986843708501e-01 4.620998725377201798e-07 8.343346788662415747e-01
1.492257271326833461e+03 3.452261897086021936e-01 4.290516348571141136e-07 8.343346788662415747e-01
1.567934425171697285e+03 3.367919008607162534e-01 3.983669252333245449e-07 8.343346788662415747e-01
1.647449410283397128e+03 3.285636717802817297e-01 3.698767099971616497e-07 8.343346788662415747e-01
1.730996855398402886e+03 3.205364681806474603e-01 3.434240443485495507e-07 8.343346788662415747e-01
1.818781259500845408e+03 3.127053787688076070e-01 3.188632077905620789e-07 8.343346788662415747e-01
1.911017492374429366e+03 3.050656122405209780e-01 2.960589013950815271e-07 8.343346788662415747e-01
2.007931320538963519e+03 2.976124943488408503e-01 2.748855024780218632e-07 8.343346788662415747e-01
2.109759959858804905e+03 2.903414650442658895e-01 2.552263725783379611e-07 8.343346788662415747e-01
2.216752656175846369e+03 2.832480756847600700e-01 2.369732149286588613e-07 8.343346788662415747e-01
2.329171295388287490e+03 2.763279863139342929e-01 2.200254778780273350e-07 8.343346788662415747e-01
2.447291044468427572e+03 2.695769630057268662e-01 2.042898009803708363e-07 8.343346788662415747e-01
2.571401024988559584e+03 2.629908752739548716e-01 1.896795006973473507e-07 8.343346788662415747e-01
2.701805020803486968e+03 2.565656935451550713e-01 1.761140928824539601e-07 8.343346788662415747e-01
2.838822221621933295e+03 2.502974866931644282e-01 1.635188494158837322e-07 8.343346788662415747e-01
2.982788004286796877e+03 2.441824196339358877e-01 1.518243865477639721e-07 8.343346788662415747e-01
3.134054753676679411e+03 2.382167509791136839e-01 1.409662826820611944e-07 8.343346788662415747e-01
3.292992725237935247e+03 2.323968307469357064e-01 1.308847234956367479e-07 8.343346788662415747e-01
3.459990951258485893e+03 2.267190981290615748e-01 1.215241724375079876e-07 8.343346788662415747e-01
3.635458193101720099e+03 2.211800793119584885e-01 1.128330647931840676e-07 8.343346788662415747e-01
3.819823941731182003e+03 2.157763853515146935e-01 1.047635236287642178e-07 8.343346788662415747e-01
4.013539468975128784e+03 2.105047100995773579e-01 9.727109605000839056e-08 8.343346788662415747e-01
4.217078932104030173e+03 2.053618281811488422e-01 9.031450832350718807e-08 8.343346788662415747e-01
4.430940534424800717e+03 2.003445930210012715e-01 8.385543851097726372e-08 8.343346788662415747e-01
4.655647744732417777e+03 1.954499349185045143e-01 7.785830536418991812e-08 8.343346788662415747e-01
4.891750578603911890e+03 1.906748591694872597e-01 7.229007231761005554e-08 8.343346788662415747e-01
5.139826944670843659e+03 1.860164442339838908e-01 6.712006549899627343e-08 8.343346788662415747e-01
5.400484059165573854e+03 1.814718399487459111e-01 6.231980475543254969e-08 8.343346788662415747e-01
5.674359932203758945e+03 1.770382657834225215e-01 5.786284676395773316e-08 8.343346788662415747e-01
5.962124929440929918e+03 1.727130091393464517e-01 5.372463936253581267e-08 8.343346788662415747e-01
6.264483412925771518e+03 1.684934236898809057e-01 4.988238629891266643e-08 8.343346788662415747e-01
6.582175465166237700e+03 1.643769277613152668e-01 4.631492165230065446e-08 8.343346788662415747e-01
6.915978700628701517e+03 1.603610027533160509e-01 4.300259323611192690e-08 8.343346788662415747e-01
7.266710169103916996e+03 1.564431915979696275e-01 3.992715433944050630e-08 8.343346788662415747e-01
7.635228355598897906e+03 1.526210972564708279e-01 3.707166321092407923e-08 8.343346788662415747e-01
8.022435281649643912e+03 1.488923812525403401e-01 3.442038973127170201e-08 8.343346788662415747e-01
8.429278713198178593e+03 1.452547622416724693e-01 3.195872876034105854e-08 8.343346788662415747e-01
8.856754480438206883e+03 1.417060146153368561e-01 2.967311968141721270e-08 8.343346788662415747e-01
9.305908915307440111e+03 1.382439671392825808e-01 2.755097169948616095e-08 8.343346788662415747e-01
9.777841412593146742e+03 1.348665016251088811e-01 2.558059448198986668e-08 8.343346788662415747e-01
1.027370712091940550e+04 1.315715516342921554e-01 2.375113375998334622e-08 8.343346788662415747e-01
1.079471977020313898e+04 1.283571012138739476e-01 2.205251153493669493e-08 8.343346788662415747e-01
1.134215464249931028e+04 1.252211836630388597e-01 2.047537056179917346e-08 8.343346788662415747e-01
1.191735169350746764e+04 1.221618803298249317e-01 1.901102280249616105e-08 8.343346788662415747e-01
1.252171883237959810e+04 1.191773194372335032e-01 1.765140156590509018e-08 8.343346788662415747e-01
1.315673536785778560e+04 1.162656749380173993e-01 1.638901707066112711e-08 8.343346788662415747e-01
1.382395562917660391e+04 1.134251653974479718e-01 1.521691518600084757e-08 8.343346788662415747e-01
1.452501277059268250e+04 1.106540529033790965e-01 1.412863912335919942e-08 8.343346788662415747e-01
1.526162276885485699e+04 1.079506420029368585e-01 1.311819386768740136e-08 8.343346788662415747e-01
1.603558862339816005e+04 1.053132786651899688e-01 1.218001315255593079e-08 8.343346788662415747e-01
1.684880476954353799e+04 1.027403492691616599e-01 1.130892879711563876e-08 8.343346788662415747e-01
1.770326171550509025e+04 1.002302796165659426e-01 1.050014223600353451e-08 8.343346788662415747e-01
1.860105091455451475e+04 9.778153396866455516e-02 9.749198085359368462e-09 8.343346788662415747e-01
1.954436988426891548e+04 9.539261410665410279e-02 9.051959599335008943e-09 8.343346788662415747e-01
2.053552758539217757e+04 9.306205841500862774e-02 8.404585881893337506e-09 8.343346788662415747e-01
2.157695007347521823e+04 9.078844098721855493e-02 7.803510728363180604e-09 8.343346788662415747e-01
2.267118643712947232e+04 8.857037075337630128e-02 7.245422980193457721e-09 8.343346788662415747e-01
2.382091503742829809e+04 8.640649062907597433e-02 6.727248284686649528e-09 8.343346788662415747e-01
2.502895006372774515e+04 8.429547668510808944e-02 6.246132159231291052e-09 8.343346788662415747e-01
2.629824842195523161e+04 8.223603733743699296e-02 5.799424266737976459e-09 8.343346788662415747e-01
2.763191697222420771e+04 8.022691255697074475e-02 5.384663815657814587e-09 8.343346788662415747e-01
2.903322013349221743e+04 7.826687309863557263e-02 4.999566004154991807e-09 8.343346788662415747e-01
3.050558787387558186e+04 7.635471974928527417e-02 4.642009433758610604e-09 8.343346788662415747e-01
3.205262410617799469e+04 7.448928259398586438e-02 4.310024423159096452e-09 8.343346788662415747e-01
3.367811550918386638e+04 7.266942030022485732e-02 4.001782157772741666e-09 8.343346788662415747e-01
3.538604079630779597e+04 7.089401941960833675e-02 3.715584615302556289e-09 8.343346788662415747e-01
3.718058045428635523e+04 6.916199370661901824e-02 3.449855211798126332e-09 8.343346788662415747e-01
3.906612697575077618e+04 6.747228345401720673e-02 3.203130116685986901e-09 8.343346788662415747e-01
4.104729561072642537e+04 6.582385484447861312e-02 2.974050188927492818e-09 8.343346788662415747e-01
4.312893566337397351e+04 6.421569931807358245e-02 2.761353489882851185e-09 8.343346788662415747e-01
4.531614236162665475e+04 6.264683295519775375e-02 2.563868331636316242e-09 8.343346788662415747e-01
4.761426932877324725e+04 6.111629587457988178e-02 2.380506822488133208e-09 8.343346788662415747e-01
5.002894168751498364e+04 5.962315164599700512e-02 2.210258874056884885e-09 8.343346788662415747e-01
5.256606982857307594e+04 5.816648671733638809e-02 2.052186636978875476e-09 8.343346788662415747e-01
5.523186387754413590e+04 5.674540985565666718e-02 1.905419334552699041e-09 8.343346788662415747e-01
5.803284889541773009e+04 5.535905160190350560e-02 1.769148465868620214e-09 8.343346788662415747e-01
6.097588084996108228e+04 5.400656373894728579e-02 1.642623351998274275e-09 8.343346788662415747e-01
6.406816339706205326e+04 5.268711877261804399e-02 1.525147000709907626e-09 8.343346788662415747e-01
6.731726551311086223e+04 5.139990942541811797e-02 1.416072266928828758e-09 8.343346788662415747e-01
7.073114002157408686e+04 5.014414814260494124e-02 1.314798287792294734e-09 8.343346788662415747e-01
7.431814305911048723e+04 4.891906661034085141e-02 1.220767172660435694e-09 8.343346788662415747e-01
7.808705452887875435e+04 4.772391528561416990e-02 1.133460929849324439e-09 8.343346788662415747e-01
8.204709959109532065e+04 4.655796293764575405e-02 1.052398613156552047e-09 8.343346788662415747e-01
8.620797124344737676e+04 4.542049620049952441e-02 9.771336724602147713e-10 8.343346788662415747e-01
9.057985404663388908e+04 4.431081913662245075e-02 9.072514937964429918e-10 8.343346788662415747e-01
9.517344905310212926e+04 4.322825281104851480e-02 8.423671153645415237e-10 8.343346788662415747e-01
